t,inf-count-mean,inf-count-std,radius-mean(um),radius-std(um),area-mean(um2),area-std(um2),radial-velocity-mean(um/min),radial-velocity-std(um/min)
20.0,13.545454545454545,8.029491096746249,99.76508230285775,55.899141895261266,17840.79390947297,13641.40857858331,0.0008873158996008053,0.001124778777622599
20.17,14.0,8.473488065725943,98.19780429769057,52.199483115085954,18210.78712419457,13788.44319267304,0.0022386904436350473,0.0011731607231134087
20.33,14.545454545454545,9.070431482169262,98.27789987720412,50.936503522567584,18643.611633926655,14094.592709933571,0.002913799689840481,0.001261399768932506
20.5,15.181818181818182,9.400193421607684,85.74869838459358,45.34997663088914,18584.707067034815,15350.915225124016,0.003461362726629559,0.0014169131583956426
20.67,16.09090909090909,8.971672591602365,88.25596719484882,47.37294795305181,19391.19037705624,15336.91013140344,0.003918132086625287,0.001489006640156037
20.83,16.90909090909091,8.982811869949693,99.59413567238649,58.49425325851542,27923.31474345621,30033.81498356853,0.0045465660195392,0.0017417374390819244
21.0,17.454545454545453,9.657780659795877,103.78682720368843,62.12181548313645,29737.886059758373,31376.004272798225,0.005012159062816505,0.0019071742045700369
21.17,18.0,9.391485505499118,91.99969084392313,44.20899530192595,22837.739220890173,17431.56553115776,0.005678830453649106,0.0019677819496467922
21.33,18.545454545454547,9.212639538847013,93.48694483751815,46.166639600418726,23290.51197244227,17720.586518417454,0.006160540026963823,0.0022635594674646014
21.5,19.636363636363637,9.29809364625596,103.8583876095528,47.05062754645749,26193.06971209793,17577.823025683818,0.006883562148941879,0.0025182353308243503
21.67,20.363636363636363,9.718772836862968,105.25156008842538,47.613140263188775,27427.773014241902,18761.826478195697,0.0072571772771357155,0.0025511725049845667
21.83,20.818181818181817,10.13724007625529,106.42046383867927,49.45438625080621,28471.23707874925,19328.425333178246,0.0079404812603715,0.0026594048155657536
22.0,21.636363636363637,10.782140114770604,112.17151915521195,53.24429306376324,31871.78567932731,23634.103233700807,0.008153081345709691,0.0028842953791556195
22.17,21.727272727272727,10.98263091513968,103.45234519280831,52.52442711477117,30218.54686388683,24274.580156702803,0.00854702540068434,0.00300800513510024
22.33,22.818181818181817,11.703146430068982,101.89664939584053,47.05812486484796,28517.706166757915,20070.216914584944,0.00881194543748865,0.003233173736644899
22.5,23.363636363636363,11.732627389231512,104.80022296608045,46.22278351191911,29309.57586827256,19800.683201783428,0.00904880611255013,0.0032776926655392925
22.67,23.90909090909091,12.19388818592778,105.50266117098491,45.88634810982942,29670.147959359107,19947.714256372426,0.009477182516356254,0.0033425361489796412
22.83,24.636363636363637,12.460118195849727,109.38381867580496,49.38391432793292,33227.76072443737,24157.409196998673,0.009688223935644502,0.0034111798742759553
23.0,25.545454545454547,13.125270559981889,110.93562771873154,50.63823823687609,34370.153595867734,24902.304555359042,0.010052461458519039,0.0035551517489190395
23.17,26.545454545454547,13.269239890541103,111.45922329364326,44.413710935411665,33367.81968901137,20819.332050849003,0.010647447274104545,0.004175655306373035
23.33,27.636363636363637,14.37548418156917,109.65667174776826,40.79613200021127,33676.02842975275,20750.658736702277,0.011051391051778752,0.004199390217402474
23.5,28.454545454545453,15.042364417628209,116.52290963591022,47.98575673369449,37107.78738518524,22677.779372666337,0.011620526728660145,0.004003549536304069
23.67,29.727272727272727,16.535361556923448,127.84213879913194,52.15360253218148,44454.08433060636,28435.969615428116,0.012114582249823654,0.004168849552149376
23.83,30.636363636363637,17.494414693111214,122.51355992789755,50.45235276351811,42169.13359090957,29674.71779935648,0.012725084829600213,0.003805300394373695
24.0,32.36363636363637,18.040358795061298,128.14734560220802,46.68533099711146,44043.52820640794,25014.256579919205,0.013266472697746785,0.0038592857040847073
24.17,34.0,18.477012745571184,138.91408557679418,51.46225673242569,47304.69266442076,24638.531259241707,0.013916094050220677,0.004227140063384051
24.33,34.81818181818182,19.296726052976872,131.80242523107515,44.87280886363817,44938.39970766101,25903.505756848186,0.014553495751585037,0.004145068202507289
24.5,36.09090909090909,20.520499728098947,127.31628275462985,39.33326449276139,46095.36420804773,28146.17174955515,0.01486772764378213,0.00422988755278984
24.67,37.72727272727273,21.804086355960475,132.83428568636452,39.48175013564318,49278.47143290555,27621.37246704532,0.015572451045738088,0.004384143920835286
24.83,39.18181818181818,23.310161654601117,128.08048481373623,42.97290959080889,48567.42218966412,29650.80652252768,0.01609993381947722,0.004389458332089167
25.0,40.54545454545455,24.569752283503536,128.78515327981856,43.358738968186714,50480.20649988202,31636.328933268825,0.016682758759020193,0.0046518570690338296
25.17,41.81818181818182,25.035247879013227,134.20904543283172,46.7645922856444,54034.402868635654,32956.362936339516,0.017215252032169812,0.004881559913470157
25.33,42.63636363636363,26.882234755588037,131.79412919860115,48.12358296825934,50870.62709602031,32690.353272912762,0.017731965295506316,0.00515131375392171
25.5,43.90909090909091,27.22665805953623,129.6599745169175,45.40629521246731,49548.835405654114,31768.715183935237,0.01812308321051413,0.005332492837871492
25.67,45.72727272727273,28.281056943087926,131.72826092401374,45.57745531601386,51192.14358319578,32748.098729534297,0.018678207570790573,0.005740480227656146
25.83,47.36363636363637,29.72969131112103,135.00506643796828,43.743045061271765,53621.20819359493,33688.65662901234,0.019349508871192522,0.006206777854172197
26.0,48.63636363636363,29.934170198195666,137.03104000179272,42.87841367704443,55464.772791210824,34603.43874235151,0.020275019817138282,0.006715622084032587
26.17,49.45454545454545,30.114327607846853,134.91911404748964,44.12853925089496,55901.07132752161,35948.22809456049,0.020831948473816215,0.006595996935511299
26.33,51.18181818181818,30.798760305629777,137.31983616731125,44.713472350845805,57277.15970762156,36170.7370966305,0.0213367943422545,0.006547731116408868
26.5,52.63636363636363,30.839172256313002,140.6985362572863,44.330272112848995,58737.2057616212,36512.43336556877,0.02183077079301444,0.006601701940036586
26.67,54.27272727272727,31.420028354827778,145.37315170477794,46.28384672787936,63513.394639797414,39872.703186375096,0.022834044424311674,0.006749737386485577
26.83,56.18181818181818,33.02973866629338,150.67365742615618,45.54361309024228,66645.52187080766,40962.161973855196,0.02380396007485525,0.007181670925381021
27.0,57.54545454545455,32.87054497985586,148.7344731308495,38.44801755818982,64511.96960002489,36473.858738242205,0.024433883697656814,0.007232293611952694
27.17,59.45454545454545,33.39869349649365,150.18612646440147,40.794907998531265,67793.12532314438,38146.27601874976,0.02521179521206215,0.007731786171153056
27.33,61.27272727272727,34.173354851670354,158.42887635218324,37.21517367085659,73075.23069565545,36736.803902796026,0.026551278413165066,0.007476226595196515
27.5,62.63636363636363,34.79158727989491,161.7490747431774,39.66104656591114,73987.27652460783,37065.8159944091,0.027317186049234908,0.007648041927075812
27.67,64.27272727272727,35.52208020116758,162.329374300317,41.34201499361478,76090.81216959776,38946.370512683156,0.028091833098952867,0.00742487359527936
27.83,66.27272727272727,36.19969864264317,161.59321974899743,40.892682326731055,77667.96013346553,39463.75874202387,0.029137612382219815,0.007486146983761483
28.0,67.54545454545455,37.31317096244605,162.44725797836733,41.06255985243712,78960.63928813903,40009.14370630466,0.029517133089639273,0.007541681144916475
28.17,69.0,37.77565353504821,159.0254985583204,38.93580843121761,77224.06839383535,40577.816216207895,0.03027490044206479,0.007630335042269003
28.33,71.54545454545455,40.01340684411573,165.6248688318901,45.57515015230355,85346.8547371339,49256.821546527026,0.031196643336627857,0.00775068395484127
28.5,73.9090909090909,41.563095518631776,184.73307331176449,76.19518900055317,107426.0754407464,87026.5234731312,0.03205827620165379,0.007743224325959257
28.67,75.81818181818181,42.79443464241159,179.62095637213145,62.12208664098456,103578.99470454128,84484.51405489663,0.032897684059395395,0.008169734325682482
28.83,77.9090909090909,44.59474082322835,172.19249015921417,43.187651837374844,89343.57629080328,45911.07864479367,0.03410383616806358,0.00850292696849909
29.0,80.18181818181819,44.986260528784086,175.47089028499013,42.09679081220767,91388.90757012538,45583.59195104928,0.03505872211276091,0.008536973381781585
29.17,82.45454545454545,45.675734556465834,176.4542500907455,39.11954613786554,91881.20457791562,43873.732552895926,0.035834248560378285,0.008706782132252953
29.33,84.18181818181819,46.03654674672761,185.49734733521103,36.05007032808122,103171.49134765676,40377.23578098354,0.036435303227541675,0.008857238840952292
29.5,86.45454545454545,47.04968360438492,186.26035136680395,37.94697817354872,103455.348277812,43262.85500536483,0.03718741990133696,0.009047506737007159
29.67,88.36363636363636,47.74363355940293,184.0793133914533,42.15484948727953,101582.7140758724,45672.03053466481,0.038018966420505285,0.008985510619073666
29.83,90.63636363636364,49.09841693430192,182.06297378668793,39.58226110773281,101960.54432693211,44100.87938419793,0.03885866031389539,0.009275132045130578
30.0,91.72727272727273,48.889857657986504,178.2909374533054,40.79978330161206,99110.82646307358,46228.93439885637,0.03992403862180097,0.009769043711498964
30.17,93.63636363636364,49.09026935610097,179.34960544231924,40.74412833595288,101159.2856478491,46457.43927424118,0.040664844099797474,0.009802010815363934
30.33,95.81818181818181,49.78115744298877,186.61363574337813,47.56765829685753,110293.40574204511,62066.762489219116,0.04176654620179182,0.009422960977438133
30.5,98.0909090909091,50.73549949582549,192.21579110294567,47.58159196814175,116062.21547232335,62917.91573833214,0.04263254403100806,0.00925956418915526
30.67,99.27272727272727,50.61835815016309,194.61475434262138,33.771659992033356,115120.2257898191,42943.57239033162,0.04324392746544074,0.009290924987507049
30.83,101.18181818181819,51.26951956439261,192.99218416275764,34.3867582310333,117224.3708906584,43267.58564760743,0.04403920412825433,0.009410238519334098
31.0,102.63636363636364,51.41453632441457,211.31933751067,68.03930053119554,142454.7234456537,93346.65394128414,0.04494749064572966,0.009793932467650755
31.17,105.81818181818181,52.99022208260347,209.25504076650589,61.40304208326331,144619.61487726614,93132.23607197707,0.04607433925938384,0.009918870814353265
31.33,108.9090909090909,54.6670916465373,195.37055272700664,39.686675330456126,116178.61455985782,48453.8603537746,0.04699602176965067,0.009749916597834108
31.5,111.18181818181819,55.215610440921836,202.50189259688213,44.37751951035427,121183.17547140205,51137.0635793754,0.048043347338540744,0.009978401482082493
31.67,113.9090909090909,56.63294897046161,203.51548951929163,41.87941392031491,123980.39995425568,51558.9478534631,0.04896075816333565,0.01022354890945742
31.83,116.72727272727273,58.75898383922395,209.30758785626824,43.798792984146594,131660.39581423881,51690.935867750435,0.050550836103167913,0.010426682000457235
32.0,118.45454545454545,60.1105043006023,208.51859259721311,41.12074366016963,133130.3801280175,51848.11097389879,0.05181324060759753,0.010095745156727141
32.17,121.27272727272727,60.91484369033694,208.48210850193934,40.405914243327366,131897.2218010442,53316.9524035051,0.05336465135365728,0.010443075453778105
32.33,123.81818181818181,62.075467266575096,210.49853205944274,45.24892113428288,134099.3908012349,54885.079248945876,0.0546030122043905,0.010703646911088785
32.5,127.18181818181819,62.09157460045313,215.52249581963304,44.13025771468564,140053.17082783434,53537.037140517015,0.055923085041484286,0.010715402107012795
32.67,128.8181818181818,62.55528463977793,220.25458317279825,41.97509332418007,146156.53722532422,50262.915062912885,0.05712563960547912,0.010808433667217246
32.83,131.72727272727272,64.0282608058206,225.16714658044532,38.68751737147871,152431.5840110212,49532.24645367086,0.05838940481786947,0.011245946169382622
33.0,132.9090909090909,65.33828057954165,220.6886388344893,44.25331231058798,148346.9856398993,60968.43870164073,0.05976622967390167,0.011759683228746714
33.17,135.8181818181818,67.07729598279612,218.46105266635777,46.44607701411174,146659.36891426722,62608.112914042205,0.06115904492331606,0.011626010818632284
33.33,138.45454545454547,67.92549394205925,223.79526612475672,43.3848547018672,151663.2532877667,55351.61988025611,0.062351300295288174,0.01200503156093758
33.5,141.8181818181818,69.14595893010406,227.95725887817835,45.19061250452422,158948.43505083348,63018.06068775502,0.0645090337045135,0.012476332618657208
33.67,143.45454545454547,69.44690581496579,228.1490560074356,45.240872516053265,160532.56355040238,62911.2453583359,0.06555101772355008,0.012524119571078565
33.83,146.27272727272728,70.35636560978817,228.16105478087974,43.25365911468593,162033.1373790569,63513.88942423885,0.0669489451848816,0.012233355879299397
34.0,149.8181818181818,71.13342137394795,226.7742184669708,45.29697489860666,162661.07258461847,65292.56720183726,0.06823585676172753,0.012597503919148378
34.17,154.0,73.4479407471714,229.51702018427977,45.903750767686496,171348.12912494477,69588.44999951539,0.06987460295484739,0.012155393662094133
34.33,156.72727272727272,74.94543469630543,231.28099775312174,45.46194139968048,173493.1514522561,69569.99490301151,0.07138783185729586,0.012617526918497405
34.5,159.0,75.61349085976656,234.65287199340383,45.67500538664032,169295.7238052004,66291.0777909996,0.07264812375217782,0.012934603280514474
34.67,163.1818181818182,78.81474250648566,235.0100861835845,44.8039023960957,172686.48512341606,66220.57410842835,0.0742393243786814,0.01300630549500455
34.83,168.0909090909091,80.54992805143223,241.18866318829657,44.76278373199001,178054.42641632943,67490.0889137047,0.07679075162678338,0.013635081702224388
35.0,171.63636363636363,82.89544345411602,243.73294188233712,44.40208713243274,181084.33203221552,67869.5683559887,0.07854601194031767,0.01369463728171281
35.17,174.72727272727272,82.54827788523623,251.18238956609275,45.446952642431924,185613.72132932002,68391.70493186964,0.08019541921685627,0.01383556927136224
35.33,178.8181818181818,85.5217144143149,260.0311786987999,54.92710253939327,209643.50252834123,109724.1354335104,0.08196682152948746,0.013963122245811279
35.5,182.9090909090909,87.53679745736024,259.5027844846728,50.042506647571486,213152.29107609688,112226.08428647101,0.08357761081534706,0.013770628276605995
35.67,186.36363636363637,89.04636177550739,257.59497873710154,43.62860526327553,198035.5595066853,65632.68695340455,0.08518551852410136,0.014389428304242202
35.83,189.63636363636363,90.09025777216172,263.56579511688875,48.47086052021072,223437.28568616172,109133.40294150318,0.08681770505741561,0.014089618353256563
36.0,193.45454545454547,92.44064434691445,270.80494569942584,48.828011244481004,234052.96813495454,111225.62796568466,0.08915719162553953,0.013869154383479512
36.17,197.1818181818182,93.64381258985367,277.6483507311869,54.26953527381732,236478.53305314685,111625.02713391653,0.09043901555296029,0.014110644756120248
36.33,200.45454545454547,94.54455419151716,271.1003014169183,46.55708453823645,220730.37721986065,75759.35666852654,0.09301300159352589,0.013984374091024645
36.5,202.36363636363637,95.59107984249653,268.21650863660966,60.08583928668456,225737.34511484316,112294.42956262035,0.09437997362698751,0.014083067869234293
36.67,205.54545454545453,97.89827744793433,268.8278239570379,58.85485122392878,227732.5762179685,112194.22325091259,0.09602523909714179,0.014118820522070134
36.83,208.36363636363637,98.38930097045383,280.80004779420034,63.61125639713322,250526.5599946093,137528.82514402855,0.09712597022253298,0.014334471812211482
37.0,213.27272727272728,100.76714832631804,281.2253176537715,60.33097944513941,254430.37110248086,137860.31281239368,0.09919957779438054,0.014328676061667205
37.17,216.36363636363637,102.32426176354534,274.9643095281923,50.282560943213014,239643.78763060344,112602.70496406106,0.10041780537222574,0.014283694983974226
37.33,219.72727272727272,103.7391834449172,282.6420699543178,59.512713327314046,264781.9136735539,143677.39735784932,0.10224991991804458,0.014810980750117664
37.5,223.36363636363637,105.43080453764235,284.58111944435836,56.64043540642823,268004.7404419795,144954.08867326993,0.10424855599899353,0.014721443431807901
37.67,225.45454545454547,106.05221698424191,283.46332318489897,52.99523659823285,249052.07771355167,116072.0072773406,0.10569969767244528,0.015101934250827093
37.83,228.63636363636363,106.81504830993873,286.93820505992153,57.122451834537095,252486.64831257655,117792.41532489042,0.1072578253553215,0.015242315869192967
38.0,232.8181818181818,108.38156502082647,288.66034945601734,52.120970180905445,259569.40550270677,115881.01945343347,0.10903863359377115,0.015277197854735422
38.17,237.9090909090909,109.75286287423626,294.45209883509466,58.88899266072068,264019.2267219585,118212.31428875435,0.11081464907866252,0.016019286132946658
38.33,241.8181818181818,110.23322383185405,294.28080695991844,63.05375727763784,263629.2387533975,121621.13413711799,0.11274063248483955,0.015472655293368488
38.5,245.0909090909091,112.78338046490231,292.62568811731114,55.61303335947387,266419.24122218834,121180.78092953764,0.1145849816833724,0.015467814360157034
38.67,251.0,112.40106761058811,301.24248928102594,64.52974826040565,294023.82600021263,151191.85398354055,0.11714882823855453,0.015393510922236696
38.83,254.45454545454547,113.30080638403562,303.2249376575385,63.88334053881975,298521.79831643944,152055.92640062564,0.1189907561395598,0.015046562808053644
39.0,259.3636363636364,114.61175570356883,309.4752231062552,64.20808365084959,303962.7246965677,154185.5998985783,0.12123255658980017,0.015193621786296307
39.17,264.90909090909093,116.87810277845422,308.4099461360232,57.553391600337726,287076.85247008275,126604.18138419176,0.12428576103526674,0.015419138037186827
39.33,269.45454545454544,117.85700118055239,308.79305375998234,56.25971292796705,290760.09839206445,128118.89146533629,0.12766222760976914,0.015329793033980925
39.5,272.3636363636364,120.71476523381283,316.7304970078801,65.44526884279965,312535.1835791861,154293.58705272066,0.12955790834534445,0.015366472651094299
39.67,276.27272727272725,121.82207592147732,315.39057694930915,63.59964851791068,315642.1880951394,157918.71018319833,0.13140441452083526,0.015564588956071735
39.83,281.3636363636364,122.43469502332476,319.06530106392006,61.80279023279099,322514.8638018647,157223.0483695095,0.13428584982331307,0.01570407104676135
40.0,285.8181818181818,124.6706205822512,326.3671003886197,58.814701796529775,335565.224098577,157026.11077288608,0.13723798081089325,0.01627033607646908
40.17,289.09090909090907,124.56520745814582,322.9883663900264,56.707005607626904,320540.03631061694,132087.83043994074,0.14025798802743109,0.01757094933775681
40.33,295.1818181818182,127.47612967282791,328.5180286940115,64.04919336449218,347009.19710689195,161649.66941316312,0.1429549886450917,0.01694901965208471
40.5,299.1818181818182,128.80125634621595,324.83917324878036,61.83957769738755,337693.59239278676,160907.0810730458,0.14579797940235412,0.016375161930476324
40.67,302.90909090909093,131.07818624428288,323.1612126692305,53.76628033253982,330248.8109817978,130701.71851444418,0.1483704974613824,0.01621166078892898
40.83,308.54545454545456,131.9404135482102,325.4326755064016,57.12020821918845,356707.14776525757,159928.1844585369,0.1515668277473423,0.01758548689416444
